theta,tau_fric
0,-1
5,0.45
10,0.98
15,1.49
20,1.96
25,2.41
30,2.84
35,3.26
40,3.66
45,4.05
50,4.43
55,4.80
60,5.16
65,5.51
70,5.85
75,6.18
80,6.50
85,6.81
90,7.12
95,7.41
100,7.70
105,7.98
110,8.25
115,8.52
120,8.78
125,9.03
130,9.28
135,9.52
140,9.76
145,9.99
150,10.22
